	Tensione(V)	Tensione_errore(V)	Bacchettate
0	0.0	2.0	0
1	3.0	2.0	1
2	6.0	2.0	2
3	9.0	2.0	3
4	12.0	2.0	4
5	15.0	2.0	5
6	17.0	2.0	6
7	20.0	2.0	7
8	23.0	2.0	8
9	26.0	2.0	9
10	29.0	2.0	10
11	32.0	2.0	11
12	34.0	2.0	12
13	37.0	2.0	13
14	40.0	2.0	14
15	43.0	2.0	15
16	45.0	2.0	16
17	48.0	2.0	17
18	51.0	2.0	18
19	54.0	2.0	19
20	57.0	2.0	20
21	59.0	2.0	21
22	61.0	2.0	22
23	64.0	2.0	23
24	66.0	2.0	24
25	68.0	2.0	25
26	71.0	2.0	26
27	73.0	2.0	27
28	75.0	2.0	28
29	77.0	2.0	29
30	80.0	2.0	30
